     Energy       Flux            PL            PC          PL45   Filtered
         eV  ph/s/0.1%             -             -             -          -
1.00000e+02  2.056e+11  9.918796e-01  0.000000e+00  0.000000e+00  2.051e+11
2.00000e+02  3.266e+11  9.874421e-01  0.000000e+00  0.000000e+00  3.204e+11
3.00000e+02  4.279e+11  9.838953e-01  0.000000e+00  0.000000e+00  4.184e+11
4.00000e+02  5.182e+11  9.808572e-01  0.000000e+00  0.000000e+00  5.070e+11
5.00000e+02  6.008e+11  9.781659e-01  0.000000e+00  0.000000e+00  5.882e+11
6.00000e+02  6.778e+11  9.757334e-01  0.000000e+00  0.000000e+00  6.631e+11
7.00000e+02  7.502e+11  9.735044e-01  0.000000e+00  0.000000e+00  7.339e+11
8.00000e+02  8.189e+11  9.714419e-01  0.000000e+00  0.000000e+00  8.008e+11
9.00000e+02  8.844e+11  9.695188e-01  0.000000e+00  0.000000e+00  8.647e+11
1.00000e+03  9.471e+11  9.677152e-01  0.000000e+00  0.000000e+00  9.260e+11
1.10000e+03  1.007e+12  9.660155e-01  0.000000e+00  0.000000e+00  9.853e+11
1.20000e+03  1.065e+12  9.644072e-01  0.000000e+00  0.000000e+00  1.042e+12
1.30000e+03  1.122e+12  9.628802e-01  0.000000e+00  0.000000e+00  1.097e+12
1.40000e+03  1.176e+12  9.614264e-01  0.000000e+00  0.000000e+00  1.150e+12
1.50000e+03  1.228e+12  9.600386e-01  0.000000e+00  0.000000e+00  1.202e+12
1.60000e+03  1.279e+12  9.587109e-01  0.000000e+00  0.000000e+00  1.251e+12
1.70000e+03  1.329e+12  9.574383e-01  0.000000e+00  0.000000e+00  1.299e+12
1.80000e+03  1.377e+12  9.562163e-01  0.000000e+00  0.000000e+00  1.345e+12
1.90000e+03  1.424e+12  9.550412e-01  0.000000e+00  0.000000e+00  1.389e+12
2.00000e+03  1.470e+12  9.539093e-01  0.000000e+00  0.000000e+00  1.430e+12
2.10000e+03  1.514e+12  9.528179e-01  0.000000e+00  0.000000e+00  1.452e+12
2.20000e+03  1.558e+12  9.517642e-01  0.000000e+00  0.000000e+00  1.408e+12
2.30000e+03  1.600e+12  9.507457e-01  0.000000e+00  0.000000e+00  1.468e+12
2.40000e+03  1.642e+12  9.497604e-01  0.000000e+00  0.000000e+00  1.520e+12
2.50000e+03  1.682e+12  9.488063e-01  0.000000e+00  0.000000e+00  1.564e+12
2.60000e+03  1.722e+12  9.478815e-01  0.000000e+00  0.000000e+00  1.605e+12
2.70000e+03  1.760e+12  9.469845e-01  0.000000e+00  0.000000e+00  1.631e+12
2.80000e+03  1.798e+12  9.461138e-01  0.000000e+00  0.000000e+00  1.674e+12
2.90000e+03  1.835e+12  9.452680e-01  0.000000e+00  0.000000e+00  1.713e+12
3.00000e+03  1.871e+12  9.444459e-01  0.000000e+00  0.000000e+00  1.748e+12
3.10000e+03  1.906e+12  9.436464e-01  0.000000e+00  0.000000e+00  1.781e+12
3.20000e+03  1.941e+12  9.428683e-01  0.000000e+00  0.000000e+00  1.817e+12
3.30000e+03  1.975e+12  9.421106e-01  0.000000e+00  0.000000e+00  1.847e+12
3.40000e+03  2.008e+12  9.413725e-01  0.000000e+00  0.000000e+00  1.882e+12
3.50000e+03  2.040e+12  9.406532e-01  0.000000e+00  0.000000e+00  1.916e+12
3.60000e+03  2.072e+12  9.399517e-01  0.000000e+00  0.000000e+00  1.948e+12
3.70000e+03  2.103e+12  9.392673e-01  0.000000e+00  0.000000e+00  1.980e+12
3.80000e+03  2.134e+12  9.385994e-01  0.000000e+00  0.000000e+00  2.011e+12
3.90000e+03  2.164e+12  9.379473e-01  0.000000e+00  0.000000e+00  2.041e+12
4.00000e+03  2.193e+12  9.373104e-01  0.000000e+00  0.000000e+00  2.070e+12
4.10000e+03  2.222e+12  9.366881e-01  0.000000e+00  0.000000e+00  2.099e+12
4.20000e+03  2.250e+12  9.360798e-01  0.000000e+00  0.000000e+00  2.127e+12
4.30000e+03  2.277e+12  9.354851e-01  0.000000e+00  0.000000e+00  2.155e+12
4.40000e+03  2.304e+12  9.349034e-01  0.000000e+00  0.000000e+00  2.182e+12
4.50000e+03  2.331e+12  9.343343e-01  0.000000e+00  0.000000e+00  2.209e+12
4.60000e+03  2.357e+12  9.337774e-01  0.000000e+00  0.000000e+00  2.235e+12
4.70000e+03  2.382e+12  9.332322e-01  0.000000e+00  0.000000e+00  2.261e+12
4.80000e+03  2.407e+12  9.326984e-01  0.000000e+00  0.000000e+00  2.285e+12
4.90000e+03  2.431e+12  9.321755e-01  0.000000e+00  0.000000e+00  2.310e+12
5.00000e+03  2.455e+12  9.316633e-01  0.000000e+00  0.000000e+00  2.334e+12
5.10000e+03  2.479e+12  9.311613e-01  0.000000e+00  0.000000e+00  2.357e+12
5.20000e+03  2.501e+12  9.306693e-01  0.000000e+00  0.000000e+00  2.380e+12
5.30000e+03  2.524e+12  9.301870e-01  0.000000e+00  0.000000e+00  2.403e+12
5.40000e+03  2.546e+12  9.297141e-01  0.000000e+00  0.000000e+00  2.425e+12
5.50000e+03  2.568e+12  9.292502e-01  0.000000e+00  0.000000e+00  2.447e+12
5.60000e+03  2.589e+12  9.287952e-01  0.000000e+00  0.000000e+00  2.468e+12
5.70000e+03  2.609e+12  9.283487e-01  0.000000e+00  0.000000e+00  2.488e+12
5.80000e+03  2.630e+12  9.279106e-01  0.000000e+00  0.000000e+00  2.509e+12
5.90000e+03  2.650e+12  9.274805e-01  0.000000e+00  0.000000e+00  2.529e+12
6.00000e+03  2.669e+12  9.270583e-01  0.000000e+00  0.000000e+00  2.548e+12
6.10000e+03  2.688e+12  9.266438e-01  0.000000e+00  0.000000e+00  2.567e+12
6.20000e+03  2.707e+12  9.262367e-01  0.000000e+00  0.000000e+00  2.586e+12
6.30000e+03  2.725e+12  9.258369e-01  0.000000e+00  0.000000e+00  2.604e+12
6.40000e+03  2.743e+12  9.254441e-01  0.000000e+00  0.000000e+00  2.622e+12
6.50000e+03  2.760e+12  9.250582e-01  0.000000e+00  0.000000e+00  2.640e+12
6.60000e+03  2.778e+12  9.246790e-01  0.000000e+00  0.000000e+00  2.657e+12
6.70000e+03  2.794e+12  9.243063e-01  0.000000e+00  0.000000e+00  2.674e+12
6.80000e+03  2.811e+12  9.239400e-01  0.000000e+00  0.000000e+00  2.690e+12
6.90000e+03  2.827e+12  9.235799e-01  0.000000e+00  0.000000e+00  2.706e+12
7.00000e+03  2.843e+12  9.232259e-01  0.000000e+00  0.000000e+00  2.722e+12
7.10000e+03  2.858e+12  9.228778e-01  0.000000e+00  0.000000e+00  2.738e+12
7.20000e+03  2.873e+12  9.225354e-01  0.000000e+00  0.000000e+00  2.753e+12
7.30000e+03  2.888e+12  9.221987e-01  0.000000e+00  0.000000e+00  2.767e+12
7.40000e+03  2.902e+12  9.218675e-01  0.000000e+00  0.000000e+00  2.782e+12
7.50000e+03  2.916e+12  9.215417e-01  0.000000e+00  0.000000e+00  2.796e+12
7.60000e+03  2.930e+12  9.212211e-01  0.000000e+00  0.000000e+00  2.810e+12
7.70000e+03  2.944e+12  9.209057e-01  0.000000e+00  0.000000e+00  2.823e+12
7.80000e+03  2.957e+12  9.205953e-01  0.000000e+00  0.000000e+00  2.836e+12
7.90000e+03  2.970e+12  9.202898e-01  0.000000e+00  0.000000e+00  2.849e+12
8.00000e+03  2.982e+12  9.199891e-01  0.000000e+00  0.000000e+00  2.861e+12
8.10000e+03  2.994e+12  9.196931e-01  0.000000e+00  0.000000e+00  2.874e+12
8.20000e+03  3.006e+12  9.194017e-01  0.000000e+00  0.000000e+00  2.886e+12
8.30000e+03  3.018e+12  9.191149e-01  0.000000e+00  0.000000e+00  2.897e+12
8.40000e+03  3.029e+12  9.188324e-01  0.000000e+00  0.000000e+00  2.908e+12
8.50000e+03  3.040e+12  9.185542e-01  0.000000e+00  0.000000e+00  2.920e+12
8.60000e+03  3.051e+12  9.182803e-01  0.000000e+00  0.000000e+00  2.930e+12
8.70000e+03  3.062e+12  9.180105e-01  0.000000e+00  0.000000e+00  2.941e+12
8.80000e+03  3.072e+12  9.177448e-01  0.000000e+00  0.000000e+00  2.951e+12
8.90000e+03  3.082e+12  9.174830e-01  0.000000e+00  0.000000e+00  2.961e+12
9.00000e+03  3.092e+12  9.172252e-01  0.000000e+00  0.000000e+00  2.971e+12
9.10000e+03  3.101e+12  9.169711e-01  0.000000e+00  0.000000e+00  2.981e+12
9.20000e+03  3.111e+12  9.167209e-01  0.000000e+00  0.000000e+00  2.990e+12
9.30000e+03  3.120e+12  9.164742e-01  0.000000e+00  0.000000e+00  2.999e+12
9.40000e+03  3.129e+12  9.162312e-01  0.000000e+00  0.000000e+00  3.008e+12
9.50000e+03  3.137e+12  9.159918e-01  0.000000e+00  0.000000e+00  3.017e+12
9.60000e+03  3.145e+12  9.157558e-01  0.000000e+00  0.000000e+00  3.026e+12
9.70000e+03  3.153e+12  9.155232e-01  0.000000e+00  0.000000e+00  3.034e+12
9.80000e+03  3.161e+12  9.152939e-01  0.000000e+00  0.000000e+00  3.042e+12
9.90000e+03  3.169e+12  9.150679e-01  0.000000e+00  0.000000e+00  3.049e+12
1.00000e+04  3.176e+12  9.148452e-01  0.000000e+00  0.000000e+00  3.057e+12
1.01000e+04  3.183e+12  9.146256e-01  0.000000e+00  0.000000e+00  3.064e+12
1.02000e+04  3.190e+12  9.144091e-01  0.000000e+00  0.000000e+00  3.071e+12
1.03000e+04  3.197e+12  9.141956e-01  0.000000e+00  0.000000e+00  3.078e+12
1.04000e+04  3.203e+12  9.139852e-01  0.000000e+00  0.000000e+00  3.084e+12
1.05000e+04  3.210e+12  9.137777e-01  0.000000e+00  0.000000e+00  3.090e+12
1.06000e+04  3.216e+12  9.135731e-01  0.000000e+00  0.000000e+00  3.096e+12
1.07000e+04  3.222e+12  9.133713e-01  0.000000e+00  0.000000e+00  3.102e+12
1.08000e+04  3.227e+12  9.131723e-01  0.000000e+00  0.000000e+00  3.107e+12
1.09000e+04  3.233e+12  9.129761e-01  0.000000e+00  0.000000e+00  3.113e+12
1.10000e+04  3.238e+12  9.127826e-01  0.000000e+00  0.000000e+00  3.118e+12
1.11000e+04  3.243e+12  9.125917e-01  0.000000e+00  0.000000e+00  3.122e+12
1.12000e+04  3.248e+12  9.124034e-01  0.000000e+00  0.000000e+00  3.126e+12
1.13000e+04  3.253e+12  9.122177e-01  0.000000e+00  0.000000e+00  3.130e+12
1.14000e+04  3.257e+12  9.120345e-01  0.000000e+00  0.000000e+00  3.131e+12
1.15000e+04  3.262e+12  9.118538e-01  0.000000e+00  0.000000e+00  3.131e+12
1.16000e+04  3.266e+12  9.116756e-01  0.000000e+00  0.000000e+00  2.983e+12
1.17000e+04  3.270e+12  9.114998e-01  0.000000e+00  0.000000e+00  2.948e+12
1.18000e+04  3.273e+12  9.113263e-01  0.000000e+00  0.000000e+00  2.963e+12
1.19000e+04  3.277e+12  9.111551e-01  0.000000e+00  0.000000e+00  2.970e+12
1.20000e+04  3.280e+12  9.109863e-01  0.000000e+00  0.000000e+00  2.976e+12
1.21000e+04  3.284e+12  9.108197e-01  0.000000e+00  0.000000e+00  2.982e+12
1.22000e+04  3.287e+12  9.106553e-01  0.000000e+00  0.000000e+00  2.988e+12
1.23000e+04  3.290e+12  9.104931e-01  0.000000e+00  0.000000e+00  2.994e+12
1.24000e+04  3.293e+12  9.103330e-01  0.000000e+00  0.000000e+00  3.000e+12
1.25000e+04  3.295e+12  9.101751e-01  0.000000e+00  0.000000e+00  3.006e+12
1.26000e+04  3.298e+12  9.100193e-01  0.000000e+00  0.000000e+00  3.011e+12
1.27000e+04  3.300e+12  9.098655e-01  0.000000e+00  0.000000e+00  3.014e+12
1.28000e+04  3.302e+12  9.097137e-01  0.000000e+00  0.000000e+00  3.017e+12
1.29000e+04  3.304e+12  9.095639e-01  0.000000e+00  0.000000e+00  3.019e+12
1.30000e+04  3.306e+12  9.094161e-01  0.000000e+00  0.000000e+00  3.022e+12
1.31000e+04  3.307e+12  9.092703e-01  0.000000e+00  0.000000e+00  3.021e+12
1.32000e+04  3.309e+12  9.091263e-01  0.000000e+00  0.000000e+00  3.019e+12
1.33000e+04  3.310e+12  9.089843e-01  0.000000e+00  0.000000e+00  2.962e+12
1.34000e+04  3.312e+12  9.088440e-01  0.000000e+00  0.000000e+00  2.925e+12
1.35000e+04  3.313e+12  9.087056e-01  0.000000e+00  0.000000e+00  2.933e+12
1.36000e+04  3.314e+12  9.085690e-01  0.000000e+00  0.000000e+00  2.937e+12
1.37000e+04  3.314e+12  9.084342e-01  0.000000e+00  0.000000e+00  2.940e+12
1.38000e+04  3.315e+12  9.083012e-01  0.000000e+00  0.000000e+00  2.941e+12
1.39000e+04  3.316e+12  9.081698e-01  0.000000e+00  0.000000e+00  2.919e+12
1.40000e+04  3.316e+12  9.080402e-01  0.000000e+00  0.000000e+00  2.897e+12
1.41000e+04  3.316e+12  9.079122e-01  0.000000e+00  0.000000e+00  2.903e+12
1.42000e+04  3.316e+12  9.077859e-01  0.000000e+00  0.000000e+00  2.908e+12
1.43000e+04  3.317e+12  9.076612e-01  0.000000e+00  0.000000e+00  2.911e+12
1.44000e+04  3.316e+12  9.075381e-01  0.000000e+00  0.000000e+00  2.914e+12
1.45000e+04  3.316e+12  9.074167e-01  0.000000e+00  0.000000e+00  2.916e+12
1.46000e+04  3.316e+12  9.072967e-01  0.000000e+00  0.000000e+00  2.918e+12
1.47000e+04  3.315e+12  9.071784e-01  0.000000e+00  0.000000e+00  2.920e+12
1.48000e+04  3.315e+12  9.070615e-01  0.000000e+00  0.000000e+00  2.921e+12
1.49000e+04  3.314e+12  9.069462e-01  0.000000e+00  0.000000e+00  2.923e+12
1.50000e+04  3.313e+12  9.068323e-01  0.000000e+00  0.000000e+00  2.924e+12
1.51000e+04  3.312e+12  9.067199e-01  0.000000e+00  0.000000e+00  2.926e+12
1.52000e+04  3.311e+12  9.066090e-01  0.000000e+00  0.000000e+00  2.927e+12
1.53000e+04  3.310e+12  9.064994e-01  0.000000e+00  0.000000e+00  2.928e+12
1.54000e+04  3.309e+12  9.063913e-01  0.000000e+00  0.000000e+00  2.929e+12
1.55000e+04  3.307e+12  9.062846e-01  0.000000e+00  0.000000e+00  2.929e+12
1.56000e+04  3.306e+12  9.061792e-01  0.000000e+00  0.000000e+00  2.929e+12
1.57000e+04  3.304e+12  9.060752e-01  0.000000e+00  0.000000e+00  2.929e+12
1.58000e+04  3.303e+12  9.059726e-01  0.000000e+00  0.000000e+00  2.929e+12
1.59000e+04  3.301e+12  9.058712e-01  0.000000e+00  0.000000e+00  2.929e+12
1.60000e+04  3.299e+12  9.057712e-01  0.000000e+00  0.000000e+00  2.929e+12
1.61000e+04  3.297e+12  9.056725e-01  0.000000e+00  0.000000e+00  2.928e+12
1.62000e+04  3.295e+12  9.055750e-01  0.000000e+00  0.000000e+00  2.928e+12
1.63000e+04  3.293e+12  9.054787e-01  0.000000e+00  0.000000e+00  2.928e+12
1.64000e+04  3.290e+12  9.053838e-01  0.000000e+00  0.000000e+00  2.927e+12
1.65000e+04  3.288e+12  9.052900e-01  0.000000e+00  0.000000e+00  2.926e+12
1.66000e+04  3.286e+12  9.051975e-01  0.000000e+00  0.000000e+00  2.925e+12
1.67000e+04  3.283e+12  9.051061e-01  0.000000e+00  0.000000e+00  2.924e+12
1.68000e+04  3.280e+12  9.050159e-01  0.000000e+00  0.000000e+00  2.922e+12
1.69000e+04  3.278e+12  9.049269e-01  0.000000e+00  0.000000e+00  2.921e+12
1.70000e+04  3.275e+12  9.048391e-01  0.000000e+00  0.000000e+00  2.919e+12
1.71000e+04  3.272e+12  9.047523e-01  0.000000e+00  0.000000e+00  2.917e+12
1.72000e+04  3.269e+12  9.046667e-01  0.000000e+00  0.000000e+00  2.916e+12
1.73000e+04  3.266e+12  9.045823e-01  0.000000e+00  0.000000e+00  2.914e+12
1.74000e+04  3.263e+12  9.044989e-01  0.000000e+00  0.000000e+00  2.912e+12
1.75000e+04  3.259e+12  9.044166e-01  0.000000e+00  0.000000e+00  2.911e+12
1.76000e+04  3.256e+12  9.043353e-01  0.000000e+00  0.000000e+00  2.909e+12
1.77000e+04  3.253e+12  9.042552e-01  0.000000e+00  0.000000e+00  2.906e+12
1.78000e+04  3.249e+12  9.041761e-01  0.000000e+00  0.000000e+00  2.904e+12
1.79000e+04  3.246e+12  9.040980e-01  0.000000e+00  0.000000e+00  2.901e+12
1.80000e+04  3.242e+12  9.040209e-01  0.000000e+00  0.000000e+00  2.899e+12
1.81000e+04  3.238e+12  9.039449e-01  0.000000e+00  0.000000e+00  2.896e+12
1.82000e+04  3.235e+12  9.038698e-01  0.000000e+00  0.000000e+00  2.893e+12
1.83000e+04  3.231e+12  9.037958e-01  0.000000e+00  0.000000e+00  2.891e+12
1.84000e+04  3.227e+12  9.037227e-01  0.000000e+00  0.000000e+00  2.888e+12
1.85000e+04  3.223e+12  9.036506e-01  0.000000e+00  0.000000e+00  2.885e+12
1.86000e+04  3.219e+12  9.035794e-01  0.000000e+00  0.000000e+00  2.882e+12
1.87000e+04  3.215e+12  9.035092e-01  0.000000e+00  0.000000e+00  2.880e+12
1.88000e+04  3.210e+12  9.034399e-01  0.000000e+00  0.000000e+00  2.877e+12
1.89000e+04  3.206e+12  9.033716e-01  0.000000e+00  0.000000e+00  2.873e+12
1.90000e+04  3.202e+12  9.033041e-01  0.000000e+00  0.000000e+00  2.870e+12
1.91000e+04  3.197e+12  9.032376e-01  0.000000e+00  0.000000e+00  2.866e+12
1.92000e+04  3.193e+12  9.031720e-01  0.000000e+00  0.000000e+00  2.863e+12
1.93000e+04  3.188e+12  9.031072e-01  0.000000e+00  0.000000e+00  2.859e+12
1.94000e+04  3.184e+12  9.030433e-01  0.000000e+00  0.000000e+00  2.856e+12
1.95000e+04  3.179e+12  9.029803e-01  0.000000e+00  0.000000e+00  2.852e+12
1.96000e+04  3.174e+12  9.029182e-01  0.000000e+00  0.000000e+00  2.848e+12
1.97000e+04  3.170e+12  9.028568e-01  0.000000e+00  0.000000e+00  2.845e+12
1.98000e+04  3.165e+12  9.027964e-01  0.000000e+00  0.000000e+00  2.841e+12
1.99000e+04  3.160e+12  9.027367e-01  0.000000e+00  0.000000e+00  2.837e+12
2.00000e+04  3.155e+12  9.026779e-01  0.000000e+00  0.000000e+00  2.833e+12
2.01000e+04  3.150e+12  9.026199e-01  0.000000e+00  0.000000e+00  2.829e+12
2.02000e+04  3.145e+12  9.025627e-01  0.000000e+00  0.000000e+00  2.825e+12
2.03000e+04  3.140e+12  9.025062e-01  0.000000e+00  0.000000e+00  2.821e+12
2.04000e+04  3.135e+12  9.024506e-01  0.000000e+00  0.000000e+00  2.816e+12
2.05000e+04  3.130e+12  9.023958e-01  0.000000e+00  0.000000e+00  2.812e+12
2.06000e+04  3.124e+12  9.023417e-01  0.000000e+00  0.000000e+00  2.808e+12
2.07000e+04  3.119e+12  9.022883e-01  0.000000e+00  0.000000e+00  2.803e+12
2.08000e+04  3.114e+12  9.022358e-01  0.000000e+00  0.000000e+00  2.799e+12
2.09000e+04  3.108e+12  9.021839e-01  0.000000e+00  0.000000e+00  2.794e+12
2.10000e+04  3.103e+12  9.021328e-01  0.000000e+00  0.000000e+00  2.789e+12
2.11000e+04  3.097e+12  9.020825e-01  0.000000e+00  0.000000e+00  2.785e+12
2.12000e+04  3.092e+12  9.020329e-01  0.000000e+00  0.000000e+00  2.780e+12
2.13000e+04  3.086e+12  9.019839e-01  0.000000e+00  0.000000e+00  2.776e+12
2.14000e+04  3.081e+12  9.019357e-01  0.000000e+00  0.000000e+00  2.771e+12
2.15000e+04  3.075e+12  9.018882e-01  0.000000e+00  0.000000e+00  2.766e+12
2.16000e+04  3.069e+12  9.018414e-01  0.000000e+00  0.000000e+00  2.761e+12
2.17000e+04  3.064e+12  9.017953e-01  0.000000e+00  0.000000e+00  2.756e+12
2.18000e+04  3.058e+12  9.017498e-01  0.000000e+00  0.000000e+00  2.751e+12
2.19000e+04  3.052e+12  9.017050e-01  0.000000e+00  0.000000e+00  2.746e+12
2.20000e+04  3.046e+12  9.016609e-01  0.000000e+00  0.000000e+00  2.741e+12
2.21000e+04  3.040e+12  9.016175e-01  0.000000e+00  0.000000e+00  2.735e+12
2.22000e+04  3.034e+12  9.015747e-01  0.000000e+00  0.000000e+00  2.730e+12
2.23000e+04  3.028e+12  9.015326e-01  0.000000e+00  0.000000e+00  2.725e+12
2.24000e+04  3.022e+12  9.014911e-01  0.000000e+00  0.000000e+00  2.720e+12
2.25000e+04  3.016e+12  9.014502e-01  0.000000e+00  0.000000e+00  2.714e+12
2.26000e+04  3.010e+12  9.014099e-01  0.000000e+00  0.000000e+00  2.709e+12
2.27000e+04  3.004e+12  9.013703e-01  0.000000e+00  0.000000e+00  2.704e+12
2.28000e+04  2.998e+12  9.013313e-01  0.000000e+00  0.000000e+00  2.698e+12
2.29000e+04  2.992e+12  9.012929e-01  0.000000e+00  0.000000e+00  2.693e+12
2.30000e+04  2.985e+12  9.012551e-01  0.000000e+00  0.000000e+00  2.688e+12
2.31000e+04  2.979e+12  9.012179e-01  0.000000e+00  0.000000e+00  2.682e+12
2.32000e+04  2.973e+12  9.011813e-01  0.000000e+00  0.000000e+00  2.676e+12
2.33000e+04  2.967e+12  9.011453e-01  0.000000e+00  0.000000e+00  2.670e+12
2.34000e+04  2.960e+12  9.011099e-01  0.000000e+00  0.000000e+00  2.665e+12
2.35000e+04  2.954e+12  9.010751e-01  0.000000e+00  0.000000e+00  2.659e+12
2.36000e+04  2.948e+12  9.010408e-01  0.000000e+00  0.000000e+00  2.653e+12
2.37000e+04  2.941e+12  9.010071e-01  0.000000e+00  0.000000e+00  2.647e+12
2.38000e+04  2.935e+12  9.009739e-01  0.000000e+00  0.000000e+00  2.641e+12
2.39000e+04  2.928e+12  9.009413e-01  0.000000e+00  0.000000e+00  2.636e+12
2.40000e+04  2.922e+12  9.009093e-01  0.000000e+00  0.000000e+00  2.630e+12
2.41000e+04  2.915e+12  9.008778e-01  0.000000e+00  0.000000e+00  2.624e+12
2.42000e+04  2.909e+12  9.008468e-01  0.000000e+00  0.000000e+00  2.618e+12
2.43000e+04  2.902e+12  9.008164e-01  0.000000e+00  0.000000e+00  2.612e+12
2.44000e+04  2.895e+12  9.007865e-01  0.000000e+00  0.000000e+00  2.606e+12
2.45000e+04  2.889e+12  9.007571e-01  0.000000e+00  0.000000e+00  2.600e+12
2.46000e+04  2.882e+12  9.007282e-01  0.000000e+00  0.000000e+00  2.594e+12
2.47000e+04  2.875e+12  9.006999e-01  0.000000e+00  0.000000e+00  2.588e+12
2.48000e+04  2.869e+12  9.006720e-01  0.000000e+00  0.000000e+00  2.582e+12
2.49000e+04  2.862e+12  9.006447e-01  0.000000e+00  0.000000e+00  2.575e+12
2.50000e+04  2.855e+12  9.006179e-01  0.000000e+00  0.000000e+00  2.569e+12
2.51000e+04  2.848e+12  9.005916e-01  0.000000e+00  0.000000e+00  2.563e+12
2.52000e+04  2.842e+12  9.005657e-01  0.000000e+00  0.000000e+00  2.556e+12
2.53000e+04  2.835e+12  9.005404e-01  0.000000e+00  0.000000e+00  2.550e+12
2.54000e+04  2.828e+12  9.005155e-01  0.000000e+00  0.000000e+00  2.543e+12
2.55000e+04  2.821e+12  9.004911e-01  0.000000e+00  0.000000e+00  2.537e+12
2.56000e+04  2.814e+12  9.004672e-01  0.000000e+00  0.000000e+00  2.531e+12
2.57000e+04  2.807e+12  9.004438e-01  0.000000e+00  0.000000e+00  2.524e+12
2.58000e+04  2.801e+12  9.004208e-01  0.000000e+00  0.000000e+00  2.518e+12
2.59000e+04  2.794e+12  9.003983e-01  0.000000e+00  0.000000e+00  2.511e+12
2.60000e+04  2.787e+12  9.003762e-01  0.000000e+00  0.000000e+00  2.505e+12
2.61000e+04  2.780e+12  9.003546e-01  0.000000e+00  0.000000e+00  2.499e+12
